   i           x    density     pressure    velocity    energy  
   1    2.50e-04    1.00e+00    9.65e-03    3.80e-01    1.45e-02
   2    7.50e-04    1.00e+00    9.65e-03    3.80e-01    1.45e-02
   3    1.25e-03    1.00e+00    9.65e-03    3.80e-01    1.45e-02
   4    1.75e-03    1.00e+00    9.65e-03    3.80e-01    1.45e-02
   5    2.25e-03    1.00e+00    9.65e-03    3.80e-01    1.45e-02
   6    2.75e-03    1.00e+00    9.65e-03    3.80e-01    1.45e-02
   7    3.25e-03    1.00e+00    9.65e-03    3.80e-01    1.45e-02
   8    3.75e-03    1.00e+00    9.65e-03    3.80e-01    1.45e-02
   9    4.25e-03    1.00e+00    9.65e-03    3.80e-01    1.45e-02
  10    4.75e-03    1.00e+00    9.65e-03    3.80e-01    1.45e-02
  11    5.25e-03    1.00e+00    9.65e-03    3.80e-01    1.45e-02
  12    5.75e-03    1.00e+00    9.65e-03    3.80e-01    1.45e-02
  13    6.25e-03    1.00e+00    9.65e-03    3.80e-01    1.45e-02
  14    6.75e-03    1.00e+00    9.65e-03    3.80e-01    1.45e-02
  15    7.25e-03    1.00e+00    9.65e-03    3.80e-01    1.45e-02
  16    7.75e-03    1.00e+00    9.65e-03    3.80e-01    1.45e-02
  17    8.25e-03    1.00e+00    9.65e-03    3.80e-01    1.45e-02
  18    8.75e-03    1.00e+00    9.65e-03    3.80e-01    1.45e-02
  19    9.25e-03    1.00e+00    9.65e-03    3.80e-01    1.45e-02
  20    9.75e-03    1.00e+00    9.65e-03    3.80e-01    1.45e-02
  21    1.03e-02    1.00e+00    9.65e-03    3.80e-01    1.45e-02
  22    1.07e-02    1.00e+00    9.65e-03    3.80e-01    1.45e-02
  23    1.12e-02    1.00e+00    9.65e-03    3.80e-01    1.45e-02
  24    1.18e-02    1.00e+00    9.65e-03    3.80e-01    1.45e-02
  25    1.23e-02    1.00e+00    9.65e-03    3.80e-01    1.45e-02
  26    1.28e-02    1.00e+00    9.65e-03    3.80e-01    1.45e-02
  27    1.33e-02    1.00e+00    9.65e-03    3.80e-01    1.45e-02
  28    1.38e-02    1.00e+00    9.65e-03    3.80e-01    1.45e-02
  29    1.43e-02    1.00e+00    9.65e-03    3.80e-01    1.45e-02
  30    1.47e-02    1.00e+00    9.65e-03    3.80e-01    1.45e-02
  31    1.52e-02    1.00e+00    9.65e-03    3.80e-01    1.45e-02
  32    1.58e-02    1.00e+00    9.65e-03    3.80e-01    1.45e-02
  33    1.63e-02    1.00e+00    9.65e-03    3.80e-01    1.45e-02
  34    1.68e-02    1.00e+00    9.65e-03    3.80e-01    1.45e-02
  35    1.73e-02    1.00e+00    9.65e-03    3.80e-01    1.45e-02
  36    1.78e-02    1.00e+00    9.65e-03    3.80e-01    1.45e-02
  37    1.83e-02    1.00e+00    9.65e-03    3.80e-01    1.45e-02
  38    1.87e-02    1.00e+00    9.65e-03    3.80e-01    1.45e-02
  39    1.92e-02    1.00e+00    9.65e-03    3.80e-01    1.45e-02
  40    1.98e-02    1.00e+00    9.65e-03    3.80e-01    1.45e-02
  41    2.03e-02    1.00e+00    9.65e-03    3.80e-01    1.45e-02
  42    2.08e-02    1.00e+00    9.65e-03    3.80e-01    1.45e-02
  43    2.13e-02    1.00e+00    9.65e-03    3.80e-01    1.45e-02
  44    2.17e-02    1.00e+00    9.65e-03    3.80e-01    1.45e-02
  45    2.22e-02    1.00e+00    9.65e-03    3.80e-01    1.45e-02
  46    2.27e-02    1.00e+00    9.65e-03    3.80e-01    1.45e-02
  47    2.32e-02    1.00e+00    9.65e-03    3.80e-01    1.45e-02
  48    2.38e-02    1.00e+00    9.65e-03    3.80e-01    1.45e-02
  49    2.43e-02    1.00e+00    9.65e-03    3.80e-01    1.45e-02
  50    2.48e-02    1.00e+00    9.65e-03    3.80e-01    1.45e-02
  51    2.53e-02    1.00e+00    9.65e-03    3.80e-01    1.45e-02
  52    2.58e-02    1.00e+00    9.65e-03    3.80e-01    1.45e-02
  53    2.63e-02    1.00e+00    9.65e-03    3.80e-01    1.45e-02
  54    2.67e-02    1.00e+00    9.65e-03    3.80e-01    1.45e-02
  55    2.72e-02    1.00e+00    9.65e-03    3.80e-01    1.45e-02
  56    2.78e-02    1.00e+00    9.65e-03    3.80e-01    1.45e-02
  57    2.83e-02    1.00e+00    9.65e-03    3.80e-01    1.45e-02
  58    2.88e-02    1.00e+00    9.65e-03    3.80e-01    1.45e-02
  59    2.93e-02    1.00e+00    9.65e-03    3.80e-01    1.45e-02
  60    2.97e-02    1.00e+00    9.65e-03    3.80e-01    1.45e-02
  61    3.02e-02    1.00e+00    9.65e-03    3.80e-01    1.45e-02
  62    3.07e-02    1.00e+00    9.65e-03    3.80e-01    1.45e-02
  63    3.12e-02    1.00e+00    9.65e-03    3.80e-01    1.45e-02
  64    3.18e-02    1.00e+00    9.65e-03    3.80e-01    1.45e-02
  65    3.23e-02    1.00e+00    9.65e-03    3.80e-01    1.45e-02
  66    3.28e-02    1.00e+00    9.65e-03    3.80e-01    1.45e-02
  67    3.33e-02    1.00e+00    9.65e-03    3.80e-01    1.45e-02
  68    3.38e-02    1.00e+00    9.65e-03    3.80e-01    1.45e-02
  69    3.43e-02    1.00e+00    9.65e-03    3.80e-01    1.45e-02
  70    3.48e-02    1.00e+00    9.65e-03    3.80e-01    1.45e-02
  71    3.53e-02    1.00e+00    9.65e-03    3.80e-01    1.45e-02
  72    3.58e-02    1.00e+00    9.65e-03    3.80e-01    1.45e-02
  73    3.63e-02    1.00e+00    9.65e-03    3.80e-01    1.45e-02
  74    3.67e-02    1.00e+00    9.65e-03    3.80e-01    1.45e-02
  75    3.72e-02    1.00e+00    9.65e-03    3.80e-01    1.45e-02
  76    3.77e-02    1.00e+00    9.65e-03    3.80e-01    1.45e-02
  77    3.82e-02    1.00e+00    9.65e-03    3.80e-01    1.45e-02
  78    3.87e-02    1.00e+00    9.65e-03    3.80e-01    1.45e-02
  79    3.93e-02    1.00e+00    9.65e-03    3.80e-01    1.45e-02
  80    3.98e-02    1.00e+00    9.65e-03    3.80e-01    1.45e-02
  81    4.03e-02    1.00e+00    9.65e-03    3.80e-01    1.45e-02
  82    4.08e-02    1.00e+00    9.65e-03    3.80e-01    1.45e-02
  83    4.13e-02    1.00e+00    9.65e-03    3.80e-01    1.45e-02
  84    4.18e-02    1.00e+00    9.65e-03    3.80e-01    1.45e-02
  85    4.23e-02    1.00e+00    9.65e-03    3.80e-01    1.45e-02
  86    4.28e-02    1.00e+00    9.65e-03    3.80e-01    1.45e-02
  87    4.33e-02    1.00e+00    9.65e-03    3.80e-01    1.45e-02
  88    4.37e-02    1.00e+00    9.65e-03    3.80e-01    1.45e-02
  89    4.42e-02    1.00e+00    9.65e-03    3.80e-01    1.45e-02
  90    4.47e-02    1.00e+00    9.65e-03    3.80e-01    1.45e-02
  91    4.52e-02    1.00e+00    9.65e-03    3.80e-01    1.45e-02
  92    4.57e-02    1.00e+00    9.65e-03    3.80e-01    1.45e-02
  93    4.62e-02    1.00e+00    9.65e-03    3.80e-01    1.45e-02
  94    4.67e-02    1.00e+00    9.65e-03    3.80e-01    1.45e-02
  95    4.73e-02    1.00e+00    9.65e-03    3.80e-01    1.45e-02
  96    4.78e-02    1.00e+00    9.65e-03    3.80e-01    1.45e-02
  97    4.83e-02    1.00e+00    9.65e-03    3.80e-01    1.45e-02
  98    4.88e-02    1.00e+00    9.65e-03    3.80e-01    1.45e-02
  99    4.93e-02    1.00e+00    9.65e-03    3.80e-01    1.45e-02
 100    4.98e-02    1.00e+00    9.65e-03    3.80e-01    1.45e-02
 101    5.03e-02    1.00e+00    9.65e-03    3.80e-01    1.45e-02
 102    5.08e-02    1.00e+00    9.65e-03    3.80e-01    1.45e-02
 103    5.13e-02    1.00e+00    9.65e-03    3.80e-01    1.45e-02
 104    5.18e-02    1.00e+00    9.65e-03    3.80e-01    1.45e-02
 105    5.23e-02    1.00e+00    9.65e-03    3.80e-01    1.45e-02
 106    5.27e-02    1.00e+00    9.65e-03    3.80e-01    1.45e-02
 107    5.32e-02    1.00e+00    9.65e-03    3.80e-01    1.45e-02
 108    5.37e-02    1.00e+00    9.65e-03    3.80e-01    1.45e-02
 109    5.42e-02    1.00e+00    9.65e-03    3.80e-01    1.45e-02
 110    5.48e-02    1.00e+00    9.65e-03    3.80e-01    1.45e-02
 111    5.53e-02    1.00e+00    9.65e-03    3.80e-01    1.45e-02
 112    5.58e-02    1.00e+00    9.65e-03    3.80e-01    1.45e-02
 113    5.63e-02    1.00e+00    9.65e-03    3.80e-01    1.45e-02
 114    5.68e-02    1.00e+00    9.65e-03    3.80e-01    1.45e-02
 115    5.73e-02    1.00e+00    9.65e-03    3.80e-01    1.45e-02
 116    5.78e-02    1.00e+00    9.65e-03    3.80e-01    1.45e-02
 117    5.83e-02    1.00e+00    9.65e-03    3.80e-01    1.45e-02
 118    5.88e-02    1.00e+00    9.65e-03    3.80e-01    1.45e-02
 119    5.93e-02    1.00e+00    9.65e-03    3.80e-01    1.45e-02
 120    5.97e-02    1.00e+00    9.65e-03    3.80e-01    1.45e-02
 121    6.02e-02    1.00e+00    9.65e-03    3.80e-01    1.45e-02
 122    6.07e-02    1.00e+00    9.65e-03    3.80e-01    1.45e-02
 123    6.12e-02    1.00e+00    9.65e-03    3.80e-01    1.45e-02
 124    6.17e-02    1.00e+00    9.65e-03    3.80e-01    1.45e-02
 125    6.22e-02    1.00e+00    9.65e-03    3.80e-01    1.45e-02
 126    6.28e-02    1.00e+00    9.65e-03    3.80e-01    1.45e-02
 127    6.33e-02    1.00e+00    9.65e-03    3.80e-01    1.45e-02
 128    6.38e-02    1.00e+00    9.65e-03    3.80e-01    1.45e-02
 129    6.43e-02    1.00e+00    9.65e-03    3.80e-01    1.45e-02
 130    6.48e-02    1.00e+00    9.65e-03    3.80e-01    1.45e-02
 131    6.53e-02    1.00e+00    9.65e-03    3.80e-01    1.45e-02
 132    6.58e-02    1.00e+00    9.65e-03    3.80e-01    1.45e-02
 133    6.63e-02    1.00e+00    9.65e-03    3.80e-01    1.45e-02
 134    6.68e-02    1.00e+00    9.65e-03    3.80e-01    1.45e-02
 135    6.73e-02    1.00e+00    9.65e-03    3.80e-01    1.45e-02
 136    6.78e-02    1.00e+00    9.65e-03    3.80e-01    1.45e-02
 137    6.83e-02    1.00e+00    9.65e-03    3.80e-01    1.45e-02
 138    6.88e-02    1.00e+00    9.65e-03    3.80e-01    1.45e-02
 139    6.93e-02    1.00e+00    9.65e-03    3.80e-01    1.45e-02
 140    6.98e-02    1.00e+00    9.65e-03    3.80e-01    1.45e-02
 141    7.03e-02    1.00e+00    9.65e-03    3.80e-01    1.45e-02
 142    7.08e-02    1.00e+00    9.65e-03    3.80e-01    1.45e-02
 143    7.13e-02    1.00e+00    9.65e-03    3.80e-01    1.45e-02
 144    7.18e-02    1.00e+00    9.65e-03    3.80e-01    1.45e-02
 145    7.23e-02    1.00e+00    9.65e-03    3.80e-01    1.45e-02
 146    7.27e-02    1.00e+00    9.65e-03    3.80e-01    1.45e-02
 147    7.32e-02    1.00e+00    9.65e-03    3.80e-01    1.45e-02
 148    7.37e-02    1.00e+00    9.65e-03    3.80e-01    1.45e-02
 149    7.42e-02    1.00e+00    9.65e-03    3.80e-01    1.45e-02
 150    7.47e-02    1.00e+00    9.65e-03    3.80e-01    1.45e-02
 151    7.52e-02    1.00e+00    9.65e-03    3.80e-01    1.45e-02
 152    7.57e-02    1.00e+00    9.65e-03    3.80e-01    1.45e-02
 153    7.62e-02    1.00e+00    9.65e-03    3.80e-01    1.45e-02
 154    7.67e-02    1.00e+00    9.65e-03    3.80e-01    1.45e-02
 155    7.72e-02    1.00e+00    9.65e-03    3.80e-01    1.45e-02
 156    7.77e-02    1.00e+00    9.65e-03    3.80e-01    1.45e-02
 157    7.83e-02    1.00e+00    9.65e-03    3.80e-01    1.45e-02
 158    7.88e-02    1.00e+00    9.65e-03    3.80e-01    1.45e-02
 159    7.93e-02    1.00e+00    9.65e-03    3.80e-01    1.45e-02
 160    7.98e-02    1.00e+00    9.65e-03    3.80e-01    1.45e-02
 161    8.03e-02    1.00e+00    9.65e-03    3.80e-01    1.45e-02
 162    8.08e-02    1.00e+00    9.65e-03    3.80e-01    1.45e-02
 163    8.13e-02    1.00e+00    9.65e-03    3.80e-01    1.45e-02
 164    8.18e-02    1.00e+00    9.65e-03    3.80e-01    1.45e-02
 165    8.23e-02    1.00e+00    9.65e-03    3.80e-01    1.45e-02
 166    8.28e-02    1.00e+00    9.65e-03    3.80e-01    1.45e-02
 167    8.33e-02    1.00e+00    9.65e-03    3.80e-01    1.45e-02
 168    8.38e-02    1.00e+00    9.65e-03    3.80e-01    1.45e-02
 169    8.43e-02    1.00e+00    9.65e-03    3.80e-01    1.45e-02
 170    8.48e-02    1.00e+00    9.65e-03    3.80e-01    1.45e-02
 171    8.53e-02    1.00e+00    9.65e-03    3.80e-01    1.45e-02
 172    8.58e-02    1.00e+00    9.65e-03    3.80e-01    1.45e-02
 173    8.63e-02    1.00e+00    9.65e-03    3.80e-01    1.45e-02
 174    8.68e-02    1.00e+00    9.65e-03    3.80e-01    1.45e-02
 175    8.73e-02    1.00e+00    9.65e-03    3.80e-01    1.45e-02
 176    8.77e-02    1.00e+00    9.65e-03    3.80e-01    1.45e-02
 177    8.82e-02    1.00e+00    9.65e-03    3.80e-01    1.45e-02
 178    8.87e-02    1.00e+00    9.65e-03    3.80e-01    1.45e-02
 179    8.92e-02    1.00e+00    9.65e-03    3.80e-01    1.45e-02
 180    8.97e-02    1.00e+00    9.65e-03    3.80e-01    1.45e-02
 181    9.02e-02    1.00e+00    9.65e-03    3.80e-01    1.45e-02
 182    9.07e-02    1.00e+00    9.65e-03    3.80e-01    1.45e-02
 183    9.12e-02    1.00e+00    9.65e-03    3.80e-01    1.45e-02
 184    9.17e-02    1.00e+00    9.65e-03    3.80e-01    1.45e-02
 185    9.22e-02    1.00e+00    9.65e-03    3.80e-01    1.45e-02
 186    9.27e-02    1.00e+00    9.65e-03    3.80e-01    1.45e-02
 187    9.32e-02    1.00e+00    9.65e-03    3.80e-01    1.45e-02
 188    9.38e-02    1.00e+00    9.65e-03    3.80e-01    1.45e-02
 189    9.43e-02    1.00e+00    9.65e-03    3.80e-01    1.45e-02
 190    9.48e-02    1.00e+00    9.65e-03    3.80e-01    1.45e-02
 191    9.53e-02    1.00e+00    9.65e-03    3.80e-01    1.45e-02
 192    9.58e-02    1.00e+00    9.65e-03    3.80e-01    1.45e-02
 193    9.63e-02    1.00e+00    9.65e-03    3.80e-01    1.45e-02
 194    9.68e-02    1.00e+00    9.65e-03    3.80e-01    1.45e-02
 195    9.73e-02    1.00e+00    9.65e-03    3.80e-01    1.45e-02
 196    9.78e-02    1.00e+00    9.65e-03    3.80e-01    1.45e-02
 197    9.83e-02    1.00e+00    9.65e-03    3.80e-01    1.45e-02
 198    9.88e-02    1.00e+00    9.65e-03    3.80e-01    1.45e-02
 199    9.93e-02    1.00e+00    9.65e-03    3.80e-01    1.45e-02
 200    9.98e-02    1.00e+00    9.65e-03    3.80e-01    1.45e-02
 201    1.00e-01    1.00e+00    9.65e-03    3.80e-01    1.45e-02
 202    1.01e-01    1.00e+00    9.65e-03    3.80e-01    1.45e-02
 203    1.01e-01    1.00e+00    9.65e-03    3.80e-01    1.45e-02
 204    1.02e-01    1.00e+00    9.65e-03    3.80e-01    1.45e-02
 205    1.02e-01    1.00e+00    9.65e-03    3.80e-01    1.45e-02
 206    1.03e-01    1.00e+00    9.65e-03    3.80e-01    1.45e-02
 207    1.03e-01    1.00e+00    9.65e-03    3.80e-01    1.45e-02
 208    1.04e-01    1.00e+00    9.65e-03    3.80e-01    1.45e-02
 209    1.04e-01    1.00e+00    9.65e-03    3.80e-01    1.45e-02
 210    1.05e-01    1.00e+00    9.65e-03    3.80e-01    1.45e-02
 211    1.05e-01    1.00e+00    9.65e-03    3.80e-01    1.45e-02
 212    1.06e-01    1.00e+00    9.65e-03    3.80e-01    1.45e-02
 213    1.06e-01    1.00e+00    9.65e-03    3.80e-01    1.45e-02
 214    1.07e-01    1.00e+00    9.65e-03    3.80e-01    1.45e-02
 215    1.07e-01    1.00e+00    9.65e-03    3.80e-01    1.45e-02
 216    1.08e-01    1.00e+00    9.65e-03    3.80e-01    1.45e-02
 217    1.08e-01    1.00e+00    9.65e-03    3.80e-01    1.45e-02
 218    1.09e-01    1.00e+00    9.65e-03    3.80e-01    1.45e-02
 219    1.09e-01    1.00e+00    9.65e-03    3.80e-01    1.45e-02
 220    1.10e-01    1.00e+00    9.65e-03    3.80e-01    1.45e-02
 221    1.10e-01    1.00e+00    9.65e-03    3.80e-01    1.45e-02
 222    1.11e-01    1.00e+00    9.65e-03    3.80e-01    1.45e-02
 223    1.11e-01    1.00e+00    9.65e-03    3.80e-01    1.45e-02
 224    1.12e-01    1.00e+00    9.65e-03    3.80e-01    1.45e-02
 225    1.12e-01    1.00e+00    9.65e-03    3.80e-01    1.45e-02
 226    1.13e-01    1.00e+00    9.65e-03    3.80e-01    1.45e-02
 227    1.13e-01    1.00e+00    9.65e-03    3.80e-01    1.45e-02
 228    1.14e-01    1.00e+00    9.65e-03    3.80e-01    1.45e-02
 229    1.14e-01    1.00e+00    9.65e-03    3.80e-01    1.45e-02
 230    1.15e-01    1.00e+00    9.65e-03    3.80e-01    1.45e-02
 231    1.15e-01    1.00e+00    9.65e-03    3.80e-01    1.45e-02
 232    1.16e-01    1.00e+00    9.65e-03    3.80e-01    1.45e-02
 233    1.16e-01    1.00e+00    9.65e-03    3.80e-01    1.45e-02
 234    1.17e-01    1.00e+00    9.65e-03    3.80e-01    1.45e-02
 235    1.17e-01    1.00e+00    9.65e-03    3.80e-01    1.45e-02
 236    1.18e-01    1.00e+00    9.65e-03    3.80e-01    1.45e-02
 237    1.18e-01    1.00e+00    9.65e-03    3.80e-01    1.45e-02
 238    1.19e-01    1.00e+00    9.65e-03    3.80e-01    1.45e-02
 239    1.19e-01    1.00e+00    9.65e-03    3.80e-01    1.45e-02
 240    1.20e-01    1.00e+00    9.65e-03    3.80e-01    1.45e-02
 241    1.20e-01    1.00e+00    9.65e-03    3.80e-01    1.45e-02
 242    1.21e-01    1.00e+00    9.65e-03    3.80e-01    1.45e-02
 243    1.21e-01    1.00e+00    9.65e-03    3.80e-01    1.45e-02
 244    1.22e-01    1.00e+00    9.65e-03    3.80e-01    1.45e-02
 245    1.22e-01    1.00e+00    9.65e-03    3.80e-01    1.45e-02
 246    1.23e-01    1.00e+00    9.65e-03    3.80e-01    1.45e-02
 247    1.23e-01    1.00e+00    9.65e-03    3.80e-01    1.45e-02
 248    1.24e-01    1.00e+00    9.65e-03    3.80e-01    1.45e-02
 249    1.24e-01    1.00e+00    9.65e-03    3.80e-01    1.45e-02
 250    1.25e-01    1.00e+00    9.65e-03    3.80e-01    1.45e-02
 251    1.25e-01    1.00e+00    9.65e-03    3.80e-01    1.45e-02
 252    1.26e-01    1.00e+00    9.65e-03    3.80e-01    1.45e-02
 253    1.26e-01    1.00e+00    9.65e-03    3.80e-01    1.45e-02
 254    1.27e-01    1.00e+00    9.65e-03    3.80e-01    1.45e-02
 255    1.27e-01    1.00e+00    9.65e-03    3.80e-01    1.45e-02
 256    1.28e-01    1.00e+00    9.65e-03    3.80e-01    1.45e-02
 257    1.28e-01    1.00e+00    9.65e-03    3.80e-01    1.45e-02
 258    1.29e-01    1.00e+00    9.65e-03    3.80e-01    1.45e-02
 259    1.29e-01    1.00e+00    9.65e-03    3.80e-01    1.45e-02
 260    1.30e-01    1.00e+00    9.65e-03    3.80e-01    1.45e-02
 261    1.30e-01    1.00e+00    9.65e-03    3.80e-01    1.45e-02
 262    1.31e-01    1.00e+00    9.65e-03    3.80e-01    1.45e-02
 263    1.31e-01    1.00e+00    9.65e-03    3.80e-01    1.45e-02
 264    1.32e-01    1.00e+00    9.65e-03    3.80e-01    1.45e-02
 265    1.32e-01    1.00e+00    9.65e-03    3.80e-01    1.45e-02
 266    1.33e-01    1.00e+00    9.65e-03    3.80e-01    1.45e-02
 267    1.33e-01    1.00e+00    9.65e-03    3.80e-01    1.45e-02
 268    1.34e-01    1.00e+00    9.65e-03    3.80e-01    1.45e-02
 269    1.34e-01    1.00e+00    9.65e-03    3.80e-01    1.45e-02
 270    1.35e-01    1.00e+00    9.65e-03    3.80e-01    1.45e-02
 271    1.35e-01    1.00e+00    9.65e-03    3.80e-01    1.45e-02
 272    1.36e-01    1.00e+00    9.65e-03    3.80e-01    1.45e-02
 273    1.36e-01    1.00e+00    9.65e-03    3.80e-01    1.45e-02
 274    1.37e-01    1.00e+00    9.65e-03    3.80e-01    1.45e-02
 275    1.37e-01    1.00e+00    9.65e-03    3.80e-01    1.45e-02
 276    1.38e-01    1.00e+00    9.65e-03    3.80e-01    1.45e-02
 277    1.38e-01    1.00e+00    9.65e-03    3.80e-01    1.45e-02
 278    1.39e-01    1.00e+00    9.65e-03    3.80e-01    1.45e-02
 279    1.39e-01    1.00e+00    9.65e-03    3.80e-01    1.45e-02
 280    1.40e-01    1.00e+00    9.65e-03    3.80e-01    1.45e-02
 281    1.40e-01    1.00e+00    9.65e-03    3.80e-01    1.45e-02
 282    1.41e-01    1.00e+00    9.65e-03    3.80e-01    1.45e-02
 283    1.41e-01    1.00e+00    9.65e-03    3.80e-01    1.45e-02
 284    1.42e-01    1.00e+00    9.65e-03    3.80e-01    1.45e-02
 285    1.42e-01    1.00e+00    9.65e-03    3.80e-01    1.45e-02
 286    1.43e-01    1.00e+00    9.65e-03    3.80e-01    1.45e-02
 287    1.43e-01    1.00e+00    9.65e-03    3.80e-01    1.45e-02
 288    1.44e-01    1.00e+00    9.65e-03    3.80e-01    1.45e-02
 289    1.44e-01    1.00e+00    9.65e-03    3.80e-01    1.45e-02
 290    1.45e-01    1.00e+00    9.65e-03    3.80e-01    1.45e-02
 291    1.45e-01    1.00e+00    9.65e-03    3.80e-01    1.45e-02
 292    1.46e-01    1.00e+00    9.65e-03    3.80e-01    1.45e-02
 293    1.46e-01    1.00e+00    9.65e-03    3.80e-01    1.45e-02
 294    1.47e-01    1.00e+00    9.65e-03    3.80e-01    1.45e-02
 295    1.47e-01    1.00e+00    9.65e-03    3.80e-01    1.45e-02
 296    1.48e-01    1.00e+00    9.65e-03    3.80e-01    1.45e-02
 297    1.48e-01    1.00e+00    9.65e-03    3.80e-01    1.45e-02
 298    1.49e-01    1.00e+00    9.65e-03    3.80e-01    1.45e-02
 299    1.49e-01    1.00e+00    9.65e-03    3.80e-01    1.45e-02
 300    1.50e-01    1.00e+00    9.65e-03    3.80e-01    1.45e-02
 301    1.50e-01    1.00e+00    9.65e-03    3.80e-01    1.45e-02
 302    1.51e-01    1.00e+00    9.65e-03    3.80e-01    1.45e-02
 303    1.51e-01    1.00e+00    9.65e-03    3.80e-01    1.45e-02
 304    1.52e-01    1.00e+00    9.65e-03    3.80e-01    1.45e-02
 305    1.52e-01    1.00e+00    9.65e-03    3.80e-01    1.45e-02
 306    1.53e-01    1.00e+00    9.65e-03    3.80e-01    1.45e-02
